L,0
R,1.9409853533124313
tau,gamma
3.162218842897899e-07,2.8831470163055794e-08
3.2491832447563926e-07,6.333642047751488e-08
3.3385392607207826e-07,1.365499086983976e-07
3.4303526627380876e-07,2.889220441274564e-07
3.524691031554247e-07,5.999589508914028e-07
3.6216238064580265e-07,1.2226840768224031e-06
3.721222336392937e-07,2.445452049938597e-06
3.82355993247478e-07,4.800169721531465e-06
3.928711921953488e-07,9.247131135103988e-06
4.036755703658969e-07,1.748279777394636e-05
4.147770804971772e-07,3.2439111391354e-05
4.2618389403605095e-07,5.9072013103728524e-05
4.3790440715291165e-07,0.00010557236170714794
4.4994724692182383e-07,0.00018517200580282932
4.623212776706172e-07,0.00031875588636027337
4.750356075056248e-07,0.0005385180358264732
4.880995950158488e-07,0.0008929004955167759
5.015228561615027e-07,0.0014530098279287237
5.153152713519959e-07,0.0023205929472920085
5.294869927185682e-07,0.0036374495197386324
5.440484515869321e-07,0.005595845614787084
5.590103661554188e-07,0.008449070827813003
5.743837493842826e-07,0.012520771444004816
5.901799171019689e-07,0.01821115141632968
6.064104963343137e-07,0.02599765514339225
6.23087433862805e-07,0.03642746057896404
6.402230050182047e-07,0.05009916856284745
6.578298227160061e-07,0.06763161946913912
6.759208467403745e-07,0.08961890329699392
6.945093932834074e-07,0.11657237015413816
7.136091447467337e-07,0.14885268624219913
7.332341598126675e-07,0.18659746164071084
7.533988837923301e-07,0.22965230818172033
7.741181592583553e-07,0.2775148837172026
7.954072369700065e-07,0.32930204839611
8.172817870987457e-07,0.38374930355453235
8.397579107625195e-07,0.43924902163242624
8.628521518772414e-07,0.4939297258382531
8.865815093342203e-07,0.5457733002753887
9.109634495124638e-07,0.5927612675318703
9.36015919135092e-07,0.6330361140603386
9.617573584793139e-07,0.6650600426103717
9.882067149496937e-07,0.6877522696184881
1.0153834570246955e-06,0.7005874833677247
1.0433075885867734e-06,0.7036422766870039
1.0719996636465532e-06,0.6975827116120268
1.1014808014719465e-06,0.683593703367147
1.1317727021333314e-06,0.6632584412055187
1.1628976624762404e-06,0.6384024075703789
1.1948785925333168e-06,0.6109207498661381
1.2277390323876163e-06,0.5826092265396186
1.261503169499667e-06,0.5550175895678648
1.2961958565110431e-06,0.5293404350399555
1.3318426295375551e-06,0.5063549674514982
1.368469726965523e-06,0.4864087030991548
1.4061041087649663e-06,0.4694538424035305
1.444773476333928e-06,0.45511971475058705
1.4845062928885391e-06,0.4428109622520729
1.5253318044138306e-06,0.4318173156267873
1.5672800611907158e-06,0.42142096594964695
1.6103819399149882e-06,0.4109894252758497
1.6546691664246146e-06,0.40004496707724896
1.7001743390520536e-06,0.3883056867698309
1.7469309526187912e-06,0.37569732448452664
1.7949734230897343e-06,0.3623386898721912
1.8443371129056614e-06,0.3485063798009891
1.8950583570123083e-06,0.3345862081294125
1.9471744896052972e-06,0.3210192862460308
2.00072387161058e-06,0.308250100712385
2.055745918920619e-06,0.29668247443750906
2.112281131407095e-06,0.2866473057981898
2.1703711227314973e-06,0.2783838178186808
2.230058650975534e-06,0.27203404473446924
2.2913876501139116e-06,0.267648684325402
2.3544032623526533e-06,0.2652013956869014
2.4191518713567504e-06,0.2646081610990123
2.4856811363916146e-06,0.2657484028647305
2.554040027403453e-06,0.268485031451965
2.6242788610643918e-06,0.2726813458110184
2.696449337808883e-06,0.2782135521461725
2.7706045798886455e-06,0.2849784762070291
2.846799170474165e-06,0.29289671614419666
2.9250891938315194e-06,0.30191196244264157
3.0055322766041162e-06,0.31198748521848285
3.088187630229727e-06,0.32310087723360315
3.1731160945239986e-06,0.3352380830222922
3.26038018246263e-06,0.3483875862628461
3.3500441261950356e-06,0.36253541069564355
3.4421739243234693e-06,0.37766134787459077
3.536837390482367e-06,0.3937365839176328
3.6341042032536764e-06,0.4107226797509782
3.7340459574549045e-06,0.42857168700122505
3.8367362168376505e-06,0.4472270748857269
3.942250568235398e-06,0.4666251154094624
4.050666677200431e-06,0.4866964239953776
4.162064345170826e-06,0.5073674606951257
4.276525568209599e-06,0.5285619268165314
4.3941345973592335e-06,0.5502020994691053
4.514978000656036e-06,0.5722101961999908
4.639144726849942e-06,0.5945098394892325
4.7667261708766845e-06,0.6170276110086991
4.89781624113053e-06,0.6396945868564141
5.032511428587069e-06,0.6624476747632023
5.170910877826971e-06,0.6852305684232642
5.313116460012961e-06,0.7079942010196181
5.459232847873744e-06,0.7306966961099092
5.609367592750068e-06,0.7533029335296402
5.763631203759637e-06,0.775783923102225
5.922137229139137e-06,0.7981161816000636
6.0850023398232655e-06,0.8202812430147801
6.252346415322265e-06,0.8422653335987863
6.424292631961186e-06,0.8640591599414043
6.600967553545819e-06,0.8856577294892529
6.782501224522055e-06,0.9070601586589437
6.969027265697159e-06,0.9282695003438568
7.160682972593615e-06,0.9492926941214584
7.357609416507671e-06,0.9701407634136237
7.5599515483471756e-06,0.9908293329250185
7.767858305325043e-06,1.0113794318281657
7.98148272058691e-06,1.0318184290399348
8.200982035853674e-06,1.0521808718406325
8.426517817161805e-06,1.0725090062994518
8.658256073786657e-06,1.0928528495229972
8.896367380436296e-06,1.1132698233143248
9.141027002805778e-06,1.1338240881376724
9.392415026584311e-06,1.1545857822725472
9.650716490010259e-06,1.1756303506395966
9.916121520071534e-06,1.197038058087358
1.0188825472451657e-05,1.2188936707929228
1.0469029075324489e-05,1.2412862111779925
1.075693857710345e-05,1.2643086802525478
1.1052765898254025e-05,1.2880576939705861
1.1356728787281287e-05,1.3126330608281334
1.1669050981007127e-05,1.3381373869277964
1.1989962369255509e-05,1.3646757958747355
1.2319699164066525e-05,1.3923557908914344
1.2658504073564127e-05,1.4212871970032417
1.3006626480605376e-05,1.4515820516132967
1.3364322626342755e-05,1.4833543030778782
1.3731855798834626e-05,1.5167192386262323
1.4109496526842677e-05,1.5517926674740639
1.4497522778959027e-05,1.5886899811983195
1.4896220168209506e-05,1.627525253703951
1.5305882162283774e-05,1.668410508620061
1.572681029954697e-05,1.7114551931084163
1.615931441099194e-05,1.7567658026397845
1.6603712848295363e-05,1.8044455519008369
1.706033271814566e-05,1.8545940069226396
1.752951012301521e-05,1.9073066666113616
1.801159040855402e-05,1.9626745598544968
1.850692841778701e-05,2.0207839540622756
1.9015888752301964e-05,2.081716225760398
1.953884604062048e-05,2.145547841837989
2.007618521394936e-05,2.2123502977000413
2.062830178951548e-05,2.2821898210666616
2.1195602161692674e-05,2.3551267138347063
2.177850390113491e-05,2.4312143516789044
2.2377436062135957e-05,2.5104980233762193
2.2992839498441767e-05,2.5930138819450708
2.3625167187748026e-05,2.6787882382339596
2.4274884565121758e-05,2.767837259665309
2.4942469865592363e-05,2.8601669173266746
2.5628414476164323e-05,2.9557728660224023
2.6333223297510392e-05,3.054639938268118
2.705741511561224e-05,3.156741107701386
2.7801522983621094e-05,3.2620360622167244
2.8566094614220237e-05,3.3704697895368083
2.93516927827778e-05,3.4819716827475413
3.015889574158673e-05,3.596455552634014
3.0988297645496787e-05,3.713820627421052
3.184050898925185e-05,3.8339532645488266
3.271615705685452e-05,3.956728862288292
3.361588638328866e-05,4.082013458624981
3.45403592289399e-05,4.209664742613963
3.549025606706309e-05,4.339532557156515
3.6466276084655706e-05,4.471459251925355
3.7469137697105843e-05,4.6052802893222555
3.849957907699354e-05,4.740825270327691
3.9558358697434456e-05,4.877919137786469
4.064625589036672e-05,5.016382947867668
4.176407142019061e-05,5.156033497217008
4.291262807318427e-05,5.2966813640233115
4.409277126312889e-05,5.438127496005665
4.530536965358924e-05,5.580159123803906
4.655131579730765e-05,5.722546198529477
4.783152679318193e-05,5.865039529589101
4.9146944961310874e-05,6.007371306097506
5.049853853660433e-05,6.149257911314491
5.188730238146822e-05,6.290404211146946
5.3314258718089126e-05,6.430508128831602
5.4780457880857606e-05,6.569264459347002
5.628697908948384e-05,6.7063674403772655
5.783493124337484e-05,6.841512292707274
5.9425453737857875e-05,6.974396421328633
6.105971730285089e-05,7.10472099109105
6.273892486459731e-05,7.232193153861038
6.446431243109941e-05,7.356528546587077
6.62371500019021e-05,7.477453167488695
6.805874250289674e-05,7.594703680030874
6.993043074683298e-05,7.708025680969616
7.185359242024583e-05,7.817170311099888
7.382964309752415e-05,7.921890398845827
7.586003728286726e-05,8.021937706331624
7.794626948089626e-05,8.117062578298587
8.008987529670854e-05,8.207016459361263
8.229243256618481e-05,8.291556699147229
8.455556251738084e-05,8.370452270460826
8.68809309638587e-05,8.443488832506063
8.92702495308359e-05,8.510472045571742
9.172527691505489e-05,8.571228933348733
9.424782017930045e-05,8.625607945504349
9.683973608251752e-05,8.673478771689531
9.950293244650884e-05,8.714732710423982
0.00010223936956021826,8.749283647735991
0.00010505106162263298,8.777068862343345
0.00010794007822536752,8.798048420588405
0.00011090854587602063,8.812202152003513
0.00011395864956342531,8.819524066472777
0.00011709263436594551,8.820015216367882
0.00012031280710400244,8.81367688890177
0.00012362153803804733,8.800506193350646
0.00012702126261323005,8.78049545035011
0.00013051448325204808,8.753635542711237
0.0001341037711962953,8.719922069254723
0.00013779176839966617,8.679362310434833
0.0001415811894724088,8.631981001807166
0.00014547482367945793,8.577823681396142
0.00014947553699351822,8.516957544917652
0.00015358627420461078,8.449470763367877
0.00015781006108763322,8.375471643402996
0.00016215000662953054,8.295088698125504
0.00016660930531771538,8.208471858838141
0.00017119123949142244,8.115794152541348
0.00017589918175772763,8.017252662476633
0.00018073659747401023,7.913067730550866
0.0001857070472986855,7.803480069390739
0.0001908141898120851,7.68874636351689
0.00019606178420941472,7.569134592824261
0.00020145369306777072,7.444920379688288
0.00020699388518925224,7.316385109124166
0.00021268643852226339,7.183815671473431
0.00021853554316315275,7.047504870981798
0.00022454550444040211,6.9077512261496175
0.00023072074608363328,6.76485721571089
0.0002370658134797662,6.619125843297343
0.00024358537701872485,6.47085631620119
0.0002502842355311536,6.320340224262505
0.0002571673198206744,6.167859586961535
0.00026423969629328495,6.013687516765389
0.00027150657068656915,5.858091303432482
0.0002789732919014651,5.701336871354812
0.0002866453559394091,5.5436931555981985
0.00029452840994775896,5.3854351214555205
0.0003026282563764671,5.2268447906253535
0.00031095085724906844,5.068210417784424
0.0003195023385511246,4.909824535342841
0.0003282889947393553,4.751981732255889
0.0003373172933747752,4.594976755000403
0.0003465938798832475,4.439103014949135
0.0003561255824469573,4.28465114349522
0.0003659194170304063,4.131907083589564
0.00037598259254462715,3.9811494082568375
0.0003863225161534199,3.8326459925805314
0.00039694679872551527,3.686650600480877
0.0004078632604366768,3.5434001531166346
0.0004190799365258705,3.403113311654722
0.00043060508320973167,3.265990589486946
0.0004424471837596873,3.132215696420399
0.0004546149547462062,3.001957436730371
0.00046711735245477193,2.875371392076852
0.00047996357947830245,2.7526008394875103
0.0004931630914908681,2.633776766153256
0.0005067256042076939,2.5190172536604116
0.0005206611005365699,2.408426738705648
0.0005349798379259322,2.302095633947854
0.0005496923559150253,2.200100552309276
0.000564809483891699,2.1025050537904955
0.0005803423490635583,2.0093605820850713
0.0005963023846483236,1.920707186132958
0.000612701338289436,1.8365737443592243
0.0006295512807031022,1.7569776530495016
0.00064686461456314,1.6819241855410503
0.0006646540836301691,1.6114058686899888
0.000682932782131862,1.5454022088602173
0.0007017141644011638,1.4838799552600626
0.0007210120547795719,1.4267938898253258
0.0007408406577927674,1.374087967720318
0.000761214568606088,1.3256965606609832
0.0007821487837675328,1.281545587413063
0.0008036587122462205,1.241553417840045
0.0008257601867744072,1.2056315528768944
0.0008484694755014282,1.1736851634167964
0.0008718032939681326,1.145613593011646
0.0008957788174106293,1.1213108989043228
0.000920413693402398,1.10066644894731
0.000945726054844073,1.0835655372571344
0.0009717345333104583,1.0698899482360424
0.000998458272764602,1.0595183924404465
0.0010259169436490198,1.0523267545296868
0.001054130757364447,1.0481881260914574
0.0010831204811467615,1.0469726387040885
0.0011129074533530532,1.048547159982495
0.0011435135991680642,1.0527749594535374
0.0011749614467425765,1.0595154788836063
0.0012072741437756257,1.0686243382743463
0.0012404754745527387,1.079953665380176
0.0012745898774527448,1.093352758961661
0.001309642462936041,1.108669006967416
0.0013456590320275546,1.1257489139418237
0.0013826660953080053,1.1444390767424477
0.0014206908924274506,1.1645869938865707
0.0014597614121554733,1.1860416831891092
0.0014999064129827644,1.2086541735793908
0.001541155444289285,1.2322779841184197
0.0015835388680945635,1.2567696787235678
0.001627087881406153,1.281989496300162
0.0016718345391826968,1.3078019453981446
0.0017178117779285,1.3340761797861855
0.0017650534399369796,1.3606859842308614
0.0018135942982008338,1.3875093081493737
0.0018634700820072687,1.4144274512216357
0.0019147175032371198,1.4413241583288863
0.001967374283387228,1.46808494819543
0.002021479181335962,1.4945969412247944
0.0020770720218723187,1.5207492829160558
0.0021341937250096026,1.5464340472372997
0.0021928863361052745,1.5715473394931552
0.002253193056809113,1.5959902720155663
0.0023151582768624938,1.619669577052746
0.0023788276067721785,1.6424978052176864
0.0024442479113826695,1.664393247419726
0.00251146734437184,1.685279824066297
0.00258053538369523,1.7050871592233932
0.002651502868005101,1.7237509158414126
0.0027244220340710496,1.741213284760988
0.0027993465552297327,1.757423390089377
0.0028763315808919996,1.7723373662085524
0.002955433777136501,1.785917985984864
0.0030367113684196933,1.7981339181817733
0.0031202241804328856,1.8089588679346356
0.003206033684137913,1.8183709187500683
0.003294203041013837,1.8263523113944555
0.003384797149547979,1.8328896992975103
0.0034778826930055035,1.8379747026386322
0.0035735281885127214,1.8416044474462294
0.0036718040374902334,1.8437817873274167
0.003772782577473037,1.8445150590932964
0.003876538135355747,1.843817446066832
0.003983147082102112,1.8417062071757822
0.004092687888959103,1.8382020871649944
0.004205241185216949,1.8333291259739206
0.004320889817557637,1.8271148810222195
0.004439718911035557,1.8195908643471448
0.004561815931735183,1.8107928805295128
0.004687270751151911,1.8007609881327307
0.004816175712343397,1.7895389801657227
0.004948625697900223,1.7771735055941935
0.005084718199785728,1.7637131263420707
0.005224553391096566,1.7492076411113389
0.005368234199796734,1.7337078923583156
0.005515866384479376,1.717266061547408
0.005667558612212114,1.6999362502289357
0.005823422538523205,1.6817750361645882
0.00598357288958741,1.6628417305962069
0.0061481275466720555,1.6431982206125564
0.006317207632905457,1.6229084788010661
0.006490937602431565,1.6020379644549574
0.006669445332016456,1.5806531610845673
0.006852862215174111,1.5588213900240926
0.007041323258880734,1.5366108671509204
0.007234967182948843,1.5140908182971613
0.007433936522134231,1.4913314152461772
0.007638377731050995,1.468403365191431
0.007848441291971828,1.4453771479078301
0.008064281825592946,1.4223220693014145
0.008286058204845157,1.3993054052386262
0.008513933671834869,1.3763918976126295
0.008748075958001087,1.3536437429201897
0.00898865740757689,1.3311210390354364
0.009235855104446121,1.3088825055317042
0.009489851002488971,1.2869862273082036
0.009750832059512016,1.265490207533169
0.01001899037486156,1.2444526235166422
0.010294523330821488,1.2239317988059846
0.010577633737899696,1.2039859797452674
0.010868529984110057,1.184673008091318
0.011167426188359813,1.1660499265778264
0.011474542358055267,1.148172484913753
0.011790104551041809,1.1310944777746124
0.01211434504199747,1.114866871052997
0.012447502493402467,1.099536750526212
0.012789822131210597,1.085146221015746
0.013141555925351793,1.0717314471144812
0.01350296277519867,1.0593220259734792
0.013874308700133623,1.0479408158606152
0.014255867035356716,1.037604238670259
0.01464791863307849,1.0283229728822558
0.015050752069245794,1.0201028920731257
0.015464663855952807,1.0129460966758304
0.01588995865969357,1.0068519205378115
0.016326949525616717,1.0018178398592492
0.016775958107947436,0.9978402424047632
0.017237314906746293,0.9949150178712773
0.017711359511179196,0.9930379153653794
0.01819844084947738,0.9922046038611214
0.018698917445771915,0.9924103873466368
0.01921315768399107,0.9936495738903972
0.01974154007901532,0.9959145631512054
0.020284453555289385,0.9991947736367448
0.020842297733096374,1.0034755554027457
0.021415483222704784,1.0087372181413015
0.022004431926604864,1.014954261839605
0.0226095773500568,1.0220948540047927
0.02323136492017929,1.0301205783594258
0.023870252313813425,1.0389864921662582
0.02452670979440315,1.0486415570211045
0.025201220558140322,1.0590295193911197
0.0258942810896291,1.0700902825167784
0.026606401527331527,1.0817617211312838
0.027338106039063198,1.0939817652579942
0.028089933207815533,1.1066904637588313
0.028862436428188507,1.119831682017606
0.029656184313725745,1.133354122441696
0.03047176111545176,1.1472114782127711
0.0313097671519194,1.1613617022589082
0.0321708192510841,1.1757655390760886
0.03305555120433006,1.1903845782491547
0.033964614232982825,1.2051791251395148
0.034898677467651,1.220106160879618
0.03585842844075111,1.2351176182990193
0.03684457359257677,1.2501591697240515
0.037857838791285583,1.2651697198176686
0.03889896986718618,1.2800818011741673
0.03996873316171875,1.2948230380154806
0.04106791609153309,1.309318731820284
0.04219732772807943,1.323495420426897
0.04335779939313862,1.3372850043603903
0.04455018527073002,1.3506287970601742
0.045775363035847526,1.36348072898995
0.047034234500486514,1.3758089849743524
0.0483277262774372,1.387595591024114
0.04965679046233304,1.3988338402045595
0.051022405334456164,1.4095238606490577
0.05242557607681578,1.4196669777194884
0.05386733551602941,1.4292597309723858
0.055348744882551724,1.4382884515105112
0.056870894591810446,1.4467252131603843
0.05843490504682434,1.4545257947517272
0.06004192746289405,1.4616300779374174
0.06169314471497285,1.4679650742463892
0.06338977220834091,1.4734505149625998
0.06513305877322416,1.4780066265614642
0.06692428758401614,1.4815633520780396
0.06876477710377886,1.4840699081563575
0.07065588205471975,1.4855032768550855
0.07259899441535639,1.4858741284476735
0.07459554444510505,1.4852288416946042
0.07664700173704642,1.483646753407848
0.07875487629964334,1.4812324687763823
0.08092071966820723,1.478103865895606
0.08314612604693068,1.474377168167121
0.08543273348232751,1.4701509908243815
0.08778222506894336,1.4654915055578541
0.09019633018822489,1.4604207962808409
0.09267682578145903,1.45491014505742
0.09522553765771948,1.4488794623616208
0.09784434183778312,1.442203426319911
0.10053516593500565,1.4347241655287055
0.10329999057417263,1.4262695392374012
0.10614085084937055,1.4166752774442186
0.10905983782195092,1.4058085178878106
0.11205910005968989,1.3935897368855885
0.11514084521827653,1.3800098607013733
0.1183073416662936,1.3651395893618998
0.12156092015488712,1.349128722640793
0.12490397553335361,1.3321945004712492
0.12833896851190807,1.3145994990549605
0.13186842747292865,1.296621219895984
0.1354949503320152,1.2785169052365322
0.1392212064502261,1.2604880756057932
0.1430499385989051,1.242649656576587
0.1469839649785429,1.2250082819022399
0.15102618129315917,1.2074534582179413
0.15517956288173257,1.1897638500348309
0.15944716690824748,1.1716291372148775
0.16383213461196908,1.1526858896955476
0.16833769361960357,1.1325639077851177
0.17296716032104525,1.110937733946925
0.17772394231045913,1.0875768146911433
0.18261154089449602,1.0623873247127174
0.18763355366948614,1.0354391387902777
0.19279367716950835,1.006972906533456
